Wavelength Emission
672.0 0.020500162720568642
672.5 0.020894054110946154
673.0 0.02132456086320959
673.5 0.021804850021488117
674.0 0.02234808862991089
674.5 0.022967443732607052
675.0 0.02367608237370578
675.5 0.024487171597336207
676.0 0.025413878447627505
676.5 0.026469369968708818
677.0 0.027666813204709307
677.5 0.02901937519975813
678.0 0.030540222997984444
678.5 0.03224252364351739
679.0 0.03413944384687944
679.5 0.03623488066951031
680.0 0.03849925784933585
680.5 0.040895446004854716
681.0 0.0433863157545656
681.5 0.045934737716967176
682.0 0.04850358251055813
682.5 0.05105572075383713
683.0 0.05355402306530285
683.5 0.055961360063454
684.0 0.058240721853644165
684.5 0.06037465427200746
685.0 0.06238679101047321
685.5 0.0643059512366703
686.0 0.06616095411822764
686.5 0.06798061882277417
687.0 0.06979376451793878
687.5 0.07162921037135037
688.0 0.07351577555063789
688.5 0.07548227922343019
689.0 0.07755754055735622
689.5 0.0797703787200449
690.0 0.08214961287912509
690.5 0.08472406220222578
691.0 0.08752137432149734
691.5 0.09053873752864332
692.0 0.09374079034012008
692.5 0.0970905810723998
693.0 0.10055115804195464
693.5 0.10408556956525666
694.0 0.10765686395877806
694.5 0.11122808953899095
695.0 0.11476229462236742
695.5 0.11822252752537969
696.0 0.12157649469996266
696.5 0.12484341426330119
697.0 0.12807452595031765
697.5 0.13132155129903791
698.0 0.1346362118474878
698.5 0.13807022913369316
699.0 0.14167532469567984
699.5 0.14550322007147368
700.0 0.14960563679910047
700.5 0.15403429641658611
701.0 0.15884092046195644
701.5 0.16407723047323725
702.0 0.16979494798845438
702.5 0.1760457945456337
703.0 0.18285883079223292
703.5 0.1901695411341584
704.0 0.1978892591811233
704.5 0.2059293185148697
705.0 0.21420105271713932
705.5 0.22261579536967405
706.0 0.23108488005421582
706.5 0.23951984704974477
707.0 0.24786550446643957
707.5 0.25613627192807703
708.0 0.2643553120837386
708.5 0.27254578758250564
709.0 0.2807308610734599
709.5 0.28893369520568263
710.0 0.29717745262825523
710.5 0.3054852959902593
711.0 0.3138803879407763
711.5 0.3223858911288877
712.0 0.33102496820367483
712.5 0.33982027210183624
713.0 0.34878628177084753
713.5 0.3579308916551687
714.0 0.3672618090510795
714.5 0.3767867412548598
715.0 0.38651339556278913
715.5 0.39644947927114715
716.0 0.4066026996762137
716.5 0.4169807640742684
717.0 0.427591379761591
717.5 0.4384422540344611
718.0 0.4495410941891586
718.5 0.46089560752196285
719.0 0.47251349918288776
719.5 0.484382247120388
720.0 0.496419597831665
720.5 0.5085282823373518
721.0 0.5206110316580821
721.5 0.5325705768144892
722.0 0.544309648827206
722.5 0.5557309787168662
723.0 0.5667372975041027
723.5 0.5772313362095496
724.0 0.5871187760876676
724.5 0.5964140294692734
725.0 0.6052694002364314
725.5 0.6138460779960357
726.0 0.6223052523549795
726.5 0.6308081129201561
727.0 0.6395158492984593
727.5 0.6485896510967825
728.0 0.658190707922019
728.5 0.6684802093810623
729.0 0.6796193450808061
729.5 0.691769304628144
730.0 0.7050534055344947
730.5 0.7193121443218652
731.0 0.7342581036106073
731.5 0.7496032375351408
732.0 0.7650595002298854
732.5 0.7803388458292609
733.0 0.7951532284676871
733.5 0.8092146022795836
734.0 0.8222349213993704
734.5 0.8339268859780952
735.0 0.8441474416845014
735.5 0.8530687881705878
736.0 0.8609047799997881
736.5 0.8678692717355357
737.0 0.8741761179412644
737.5 0.8800391731804071
738.0 0.8856722920163975
738.5 0.891289329012669
739.0 0.897104138732655
739.5 0.9033270289940818
740.0 0.9100798837107162
740.5 0.917392181885773
741.0 0.9252890590913658
741.5 0.93377060566177
742.0 0.9424550616533246
742.5 0.9506630442493542
743.0 0.9577072994935493
743.5 0.9629882440558231
744.0 0.9667741352495113
744.5 0.9698287529862257
745.0 0.9729216720894719
745.5 0.9767181108743295
746.0 0.9811028992639491
746.5 0.9856074905458879
747.0 0.9897615924231197
747.5 0.9931596103020275
748.0 0.9957620463857327
748.5 0.9976580315689395
749.0 0.9989368376800907
749.5 0.9996877365476299
750.0 1.0
750.5 0.9999628998656445
751.0 0.9996657078968628
751.5 0.9991800486154713
752.0 0.9985103755440802
752.5 0.9976451629457119
753.0 0.9965728850833886
753.5 0.9952820162201322
754.0 0.9937610306189655
754.5 0.9919984025429102
755.0 0.9899826062549884
755.5 0.9877021160182228
756.0 0.9851454384545493
756.5 0.9823224107941825
757.0 0.9793010351755413
757.5 0.9761591360761974
758.0 0.9729745379737221
758.5 0.9698250653456867
759.0 0.9667885426696624
759.5 0.9639427944232205
760.0 0.9613651578878495
760.5 0.9590238273501528
761.0 0.956640543279049
761.5 0.9539032386517426
762.0 0.9504998464454367
762.5 0.9461182996373354
763.0 0.9404465312046423
763.5 0.933172474124561
764.0 0.9239867284112265
764.5 0.9129420669581995
765.0 0.900816947930674
765.5 0.8884764038015283
766.0 0.8767840627891108
766.5 0.8663133181325442
767.0 0.8569936396094485
767.5 0.848667929617505
768.0 0.8411790905543964
768.5 0.8343700248178038
769.0 0.8280836348054093
769.5 0.8221628229148947
770.0 0.8164506851871409
770.5 0.8108348086934923
771.0 0.805303790191207
771.5 0.7998601681997632
772.0 0.79450648123864
772.5 0.789245267827316
773.0 0.7840790664852697
773.5 0.7790104157319797
774.0 0.7740418540869248
774.5 0.7691759200695837
775.0 0.764415020148948
775.5 0.7597423889620705
776.0 0.755102171724598
776.5 0.750433752347788
777.0 0.7456765147428966
777.5 0.7407698428211813
778.0 0.7356531204938987
778.5 0.730265731672306
779.0 0.7245470602676597
779.5 0.7184364901912168
780.0 0.7118734053542344
780.5 0.704797189667969
781.0 0.6971481918089137
781.5 0.688962258342314
782.0 0.6804502574835013
782.5 0.671841780845914
783.0 0.6633664200429893
783.5 0.6552537666881654
784.0 0.6477325562341751
784.5 0.6409357562045924
785.0 0.6348144066619577
785.5 0.6292992021467492
786.0 0.6243208371994444
786.5 0.6198100063605215
787.0 0.6156974041704577
787.5 0.6119137251697312
788.0 0.6083898589383492
788.5 0.6050728493620657
789.0 0.601937743352164
789.5 0.5989623798240612
790.0 0.5961245976931749
790.5 0.5934022358749227
791.0 0.5907731332847218
791.5 0.5882151288379901
792.0 0.5857060614501447
792.5 0.5832237700366031
793.0 0.580746093512783
793.5 0.5782508707941016
794.0 0.5757159407959767
794.5 0.5731191424338256
795.0 0.5704387209221045
795.5 0.5676674405435957
796.0 0.564816219793388
796.5 0.5618971218916803
797.0 0.5589222100586716
797.5 0.5559035475145614
798.0 0.552853197479549
798.5 0.5497832231738332
799.0 0.5467056878176139
799.5 0.5436326546310895
800.0 0.5405761868344598
800.5 0.5375483476479239
801.0 0.5345608440557512
801.5 0.5316176979261484
802.0 0.5287155182277596
802.5 0.5258506121587959
803.0 0.5230192869174695
803.5 0.5202178497019921
804.0 0.5174426077105753
804.5 0.5146898681414307
805.0 0.5119559381927704
805.5 0.5092371250628056
806.0 0.5065297359497485
806.5 0.5038300780518103
807.0 0.5011344585672033
807.5 0.49843918469413884
808.0 0.49574056363082886
808.5 0.493034902575485
809.0 0.4903185087263188
809.5 0.48758768928154234
810.0 0.48483875143936694
810.5 0.4820680023980045
811.0 0.47927174935566685
811.5 0.47644629951056566
812.0 0.4735879600609127
812.5 0.4706930382049194
813.0 0.4677585205704394
813.5 0.4647879003027717
814.0 0.4617882898461597
814.5 0.4587668405952985
815.0 0.4557307039448825
815.5 0.45268703128960647
816.0 0.4496429740241653
816.5 0.4466056835432538
817.0 0.4435823112415664
817.5 0.44058000851379814
818.0 0.4376059267546437
818.5 0.4346672173587977
819.0 0.43177103172095516
819.5 0.42892452123581054
820.0 0.4261348372980588
820.5 0.4234091313023945
821.0 0.4207545546435125
821.5 0.4181782587161077
822.0 0.4156854758307748
822.5 0.4132701616636573
823.0 0.4109221663411863
823.5 0.4086313340789481
824.0 0.4063875090925293
824.5 0.40418053559751627
825.0 0.4020002578094956
825.5 0.3998365199440539
826.0 0.39767916621677735
826.5 0.3955180408432527
827.0 0.3933429880390663
827.5 0.3911438520198048
828.0 0.3889104770010546
828.5 0.38663270719840204
829.0 0.3843003868274339
829.5 0.3819033601037365
830.0 0.37943147124289633
830.5 0.37687456446049994
831.0 0.3742224839721338
831.5 0.3714650739933844
832.0 0.36859217873983835
832.5 0.3655936435429611
833.0 0.36246199803371126
833.5 0.35919821553374515
834.0 0.3558049253695136
834.5 0.3522847568674674
835.0 0.3486403393540571
835.5 0.3448743021557335
836.0 0.3409892745989473
836.5 0.33698788601014906
837.0 0.3328727657157896
837.5 0.3286465430423196
838.0 0.32431184731618984
838.5 0.31987130786385093
839.0 0.31532755401175355
839.5 0.3106832150863485
840.0 0.3059409204140864
840.5 0.3011033045987902
841.0 0.29617445863456215
841.5 0.29116190681980075
842.0 0.28607366790877103
842.5 0.28091776065573804
843.0 0.27570220381496696
843.5 0.2704350161407231
844.0 0.26512421638727135
844.5 0.259777823308877
845.0 0.25440385565980533
845.5 0.24901033219432128
846.0 0.2436052716666901
846.5 0.2381966928311769
847.0 0.23279261444204682
847.5 0.22740104727244823
848.0 0.22202885752109633
848.5 0.21668058509875104
849.0 0.21136048762785525
849.5 0.2060728227308519
850.0 0.20082184803018377
850.5 0.19561182114829384
851.0 0.19044699970762494
851.5 0.18533164133061997
852.0 0.1802700036397219
852.5 0.17526634537050625
853.0 0.1703250345761685
853.5 0.1654506391830822
854.0 0.16064774843613402
854.5 0.15592095158021055
855.0 0.1512748378601986
855.5 0.1467139965209847
856.0 0.14224301680745569
856.5 0.13786648796449807
857.0 0.13358899923699863
857.5 0.129415139869844
858.0 0.12534949910792076
858.5 0.12139666619611574
859.0 0.11756123037931553
859.5 0.11384767708065673
860.0 0.11025488773671481
860.5 0.10677339926719745
861.0 0.10339306928280358
861.5 0.10010375539423215
862.0 0.09689531521218209
862.5 0.09375760634735232
863.0 0.09068048641044182
863.5 0.08765381301214947
864.0 0.08466744376317427
864.5 0.08171123627421512
865.0 0.07877504815597096
865.5 0.07584873701914074
866.0 0.0729221604744234
866.5 0.06998517613251787
867.0 0.06702764160412306
867.5 0.06403985029180422
868.0 0.0610233383934501
868.5 0.05799160732921529
869.0 0.054958738972197635
869.5 0.05193881519549497
870.0 0.048945917872205105
870.5 0.04599412887542586
871.0 0.04309753007825508
871.5 0.04027020335379057
872.0 0.037526230575130166
872.5 0.03487969361537169
873.0 0.032344674347612984
873.5 0.02993525464495186
874.0 0.027665516380486144
874.5 0.025549541427313655
875.0 0.02360141165853223
875.5 0.02183426142741452
876.0 0.020248002005668047
876.5 0.018832832673364157
877.0 0.0175787284399529
877.5 0.016475664314884318
878.0 0.015513615307608454
878.5 0.014682556427575346
879.0 0.013972462684235038
879.5 0.013373309087037566
880.0 0.012875070645432973
880.5 0.012467722368871302
881.0 0.012141239266802597
881.5 0.01188559634867689
882.0 0.011690768623944227
882.5 0.011546731102054656
883.0 0.011443458792458205
883.5 0.011370926704604921
884.0 0.011319109847944852
884.5 0.011277983231928038
885.0 0.011237521866004501
885.5 0.011187700759624305
886.0 0.01111849492223748
886.5 0.01102132671454036
887.0 0.010895340095558599
887.5 0.010742243631110959
888.0 0.010563747590301589
888.5 0.010361562242234617
889.0 0.010137397856014191
889.5 0.009892964700744447
890.0 0.009629973045529523
890.5 0.009350133159473561
891.0 0.009055155311680699
891.5 0.00874674977125508
892.0 0.008426626807300837
892.5 0.00809649668892211
893.0 0.0077580696852230435
893.5 0.0074130560653077725
894.0 0.007063166098280436
