Wavelength Emission
626.0 0.059504326822874626
626.5 0.06223299565600601
627.0 0.06501685577273092
627.5 0.06788493724278476
628.0 0.07086627013590291
628.5 0.07398988452182083
629.0 0.07728749449684394
629.5 0.08080271990081672
630.0 0.08458248058844649
630.5 0.08867369653630175
631.0 0.09312328772095108
631.5 0.09797817411896298
632.0 0.10328527570690593
632.5 0.1090915124613485
633.0 0.11543070211666352
633.5 0.1221854455487478
634.0 0.12914130261660214
634.5 0.1360822389538975
635.0 0.14279222019430493
635.5 0.1490552119714955
636.0 0.15465517991914013
636.5 0.15939703012882664
637.0 0.16343840762042353
637.5 0.16723017767175596
638.0 0.17123211469735364
638.5 0.17590399311174637
639.0 0.18170558732946385
639.5 0.1890966717650359
640.0 0.1985169269565437
640.5 0.20985624722077342
641.0 0.22240114518657325
641.5 0.23540729142929423
642.0 0.2481303565242876
642.5 0.2598947086799394
643.0 0.2706055227049362
643.5 0.2804599233055503
644.0 0.28965724385486147
644.5 0.29839681772594945
645.0 0.306877978291894
645.5 0.3153000589257747
646.0 0.3238623930006715
646.5 0.3327598491461235
647.0 0.342085250167069
647.5 0.3518297291456182
648.0 0.36198002564096887
648.5 0.37252287921231814
649.0 0.3834450294188638
649.5 0.3947332158198031
650.0 0.40637417797433373
650.5 0.41835465544165307
651.0 0.43066138778095847
651.5 0.44328111455144764
652.0 0.45620057531231806
652.5 0.4694048092455365
653.0 0.48286280927441944
653.5 0.4965347462055162
654.0 0.5103806994553531
654.5 0.524360748440457
655.0 0.538434972577354
655.5 0.552563451282571
656.0 0.5667062639726347
656.5 0.5808234900640713
657.0 0.5948752089734076
657.5 0.60882150011717
658.0 0.622622442911885
658.5 0.6362446324188726
659.0 0.6496821958279281
659.5 0.6629365312292381
660.0 0.6760090367550622
660.5 0.6889011105376577
661.0 0.7016141507092833
661.5 0.7141495554021975
662.0 0.7265087227486585
662.5 0.7386930508809246
663.0 0.7507039379312543
663.5 0.7625427820319057
664.0 0.7742109388451974
664.5 0.7857029528390433
665.0 0.7969991288643322
665.5 0.8080779851599419
666.0 0.8189180399647494
666.5 0.8294978115176324
667.0 0.839795818057468
667.5 0.8497905778231339
668.0 0.8594606090535076
668.5 0.8687844299874663
669.0 0.8777405588638876
669.5 0.8863075139216485
670.0 0.894463813399627
670.5 0.9021882559973915
671.0 0.9094920583547124
671.5 0.9164485972948603
672.0 0.9231382810137112
672.5 0.9296415177071411
673.0 0.9360387155710258
673.5 0.9424090219801461
674.0 0.9487602537611985
674.5 0.9549920796429416
675.0 0.9609951418510362
675.5 0.9666600826111418
676.0 0.9718817483798617
676.5 0.9766159949885163
677.0 0.9808646910341845
677.5 0.9846308349960005
678.0 0.9879174253530985
678.5 0.9907274605846127
679.0 0.993066260575578
679.5 0.9949650696019626
680.0 0.9964713665271498
680.5 0.9976328795700851
681.0 0.9984973369497142
681.5 0.9991124668849827
682.0 0.9995259975948362
682.5 0.9997856572982202
683.0 0.9999385666430363
683.5 1.0
684.0 0.9999383516533585
684.5 0.9997182599116892
685.0 0.9993043630835688
685.5 0.9986612994775743
686.0 0.9977537074022832
686.5 0.9965463749555056
687.0 0.9950332524103915
687.5 0.993272125120391
688.0 0.9913292283384633
688.5 0.9892707973175678
689.0 0.987161638319666
689.5 0.9850212957177891
690.0 0.9828158610892667
690.5 0.9805083446181208
691.0 0.9780617564883749
691.5 0.9754391068840516
692.0 0.9726034059891733
692.5 0.9695176639877631
693.0 0.9661448910638434
693.5 0.9624480974014372
694.0 0.9584007491419788
694.5 0.9540351885345367
695.0 0.9494043479351577
695.5 0.9445611814188952
696.0 0.9395586430608022
696.5 0.934449686935932
697.0 0.929287267119338
697.5 0.9241243376860727
698.0 0.9190123112460195
698.5 0.9139693397433679
699.0 0.9089814890285057
699.5 0.9040335184962213
700.0 0.8991101875413029
700.5 0.8941962555585391
701.0 0.889276481942718
701.5 0.8843356260886283
702.0 0.879358447391058
702.5 0.8743297052447956
703.0 0.8692341590446296
703.5 0.8640565681853483
704.0 0.8587816920617398
704.5 0.8533945718378887
705.0 0.847894958774395
705.5 0.8423042244245722
706.0 0.8366454687236891
706.5 0.8309417916070156
707.0 0.8252162930098212
707.5 0.8194920728673757
708.0 0.8137922311149484
708.5 0.8081398676878087
709.0 0.8025580825212265
709.5 0.7970699755504717
710.0 0.791697194117092
710.5 0.7864377785273756
711.0 0.7812705886881307
711.5 0.7761739292241625
712.0 0.7711261047602755
712.5 0.7661054199212738
713.0 0.7610901793319624
713.5 0.756058687617146
714.0 0.7509892494016287
714.5 0.7458601693102154
715.0 0.7406497519677104
715.5 0.7353363019989188
716.0 0.7298981240286445
716.5 0.7243135226816926
717.0 0.7185608830196477
717.5 0.7126319870485007
718.0 0.7065468848829876
718.5 0.7003292120845542
719.0 0.6940026042146464
719.5 0.6875906968347104
720.0 0.681117125506192
720.5 0.6746055257905375
721.0 0.6680795332491922
721.5 0.6615627834436024
722.0 0.655078911935214
722.5 0.6486515542854734
723.0 0.642304346055826
723.5 0.636060922807718
724.0 0.6299449201025952
724.5 0.6239799735019037
725.0 0.6181879643231627
725.5 0.6125688898161589
726.0 0.6071078866588956
726.5 0.6017898082863521
727.0 0.5965995081335085
727.5 0.5915218396353441
728.0 0.5865416562268387
728.5 0.5816438113429717
729.0 0.576813158418723
729.5 0.5720345508890723
730.0 0.567292842188999
730.5 0.562572885753483
731.0 0.5578595350175037
731.5 0.5531376434160407
732.0 0.5483920643840741
732.5 0.5436076542667654
733.0 0.538773759762901
733.5 0.5338932808860406
734.0 0.5289716646733057
734.5 0.5240143581618176
735.0 0.5190268083886983
735.5 0.514014462391069
736.0 0.5089827672060513
736.5 0.5039371698707666
737.0 0.4988831174223368
737.5 0.4938260568978832
738.0 0.4887714353345274
738.5 0.4837246997693907
739.0 0.4786912972395949
739.5 0.4736766747822616
740.0 0.4686862794345122
740.5 0.46372555823346817
741.0 0.4587999582162512
741.5 0.4539149264199827
742.0 0.44907590988178436
742.5 0.4442883556387776
743.0 0.43955720461569797
743.5 0.43488309753786347
744.0 0.43026450465761173
744.5 0.4256998795526977
745.0 0.42118767580087635
745.5 0.4167263469799027
746.0 0.41231434666753175
746.5 0.4079501284415184
747.0 0.40363214587961777
747.5 0.39935885255958475
748.0 0.39512870205917433
748.5 0.3909401479561415
749.0 0.38679164382824116
749.5 0.3826816432532285
750.0 0.37860859980885836
750.5 0.3745709670728858
751.0 0.3705671986230657
751.5 0.3665957480371531
752.0 0.36265506889290305
752.5 0.3587436147680704
753.0 0.35485984228309064
753.5 0.3510023056751077
754.0 0.34716967518085834
754.5 0.3433606277906802
755.0 0.3395738404949113
755.5 0.3358079902838896
756.0 0.3320617541479528
756.5 0.3283338090774389
757.0 0.32462283206268583
757.5 0.3209275000940313
758.0 0.3172464901618134
758.5 0.3135784792563698
759.0 0.30992214436803867
759.5 0.3062761624871576
760.0 0.30263921060406457
760.5 0.2990099657090975
761.0 0.29538710479259433
761.5 0.29176930484489283
762.0 0.288155242856331
762.5 0.2845435958172466
763.0 0.2809330407179775
763.5 0.27732225454886167
764.0 0.2737099143002371
764.5 0.27009469696244137
765.0 0.2664752795258127
765.5 0.2628503389806887
766.0 0.2592185523174074
766.5 0.2555785965263067
767.0 0.2519297631654835
767.5 0.24827417072930727
768.0 0.24461475002888203
768.5 0.24095443194668906
769.0 0.23729614736520946
769.5 0.2336428271669244
770.0 0.22999740223431514
770.5 0.22636280344986276
771.0 0.22274196169604848
771.5 0.21913780785535353
772.0 0.215553272810259
772.5 0.2119912874432461
773.0 0.20845478263679604
773.5 0.20494668927338988
774.0 0.20146993823550893
774.5 0.19802746040563435
775.0 0.19462218666624723
775.5 0.19125704789982878
776.0 0.18793497498886022
776.5 0.1846588988158227
777.0 0.18143175026319738
777.5 0.17825646021346545
778.0 0.17513595954910813
778.5 0.17207317915260648
779.0 0.1690710499064418
779.5 0.16613191645149875
780.0 0.16325462675693558
780.5 0.1604367377895194
781.0 0.15767580446186194
781.5 0.15496938168657506
782.0 0.1523150243762707
782.5 0.14971028744356066
783.0 0.14715272580105676
783.5 0.1446398943613709
784.0 0.14216934803711487
784.5 0.1397386417409006
785.0 0.13734533038533983
785.5 0.13498696888304454
786.0 0.13266111214662646
786.5 0.1303653150886975
787.0 0.12809713262186953
787.5 0.12585411965875437
788.0 0.12363383111196388
788.5 0.12143382189410988
789.0 0.11925164691780427
789.5 0.11708486109565885
790.0 0.1149310193402855
790.5 0.11278767656429606
791.0 0.11065238768030448
791.5 0.10852330323451803
792.0 0.1064009454437257
792.5 0.1042864267387867
793.0 0.10218085955056021
793.5 0.10008535630990541
794.0 0.09800102944768149
794.5 0.09592899139474764
795.0 0.09387035458196306
795.5 0.09182623144018695
796.0 0.08979773440027844
796.5 0.0877859758930968
797.0 0.08579206834950114
797.5 0.08381712420035067
798.0 0.0818622558765046
798.5 0.07992857580882211
799.0 0.07801719642816239
799.5 0.07612923016538461
800.0 0.07426578945134799
800.5 0.0724279867169117
801.0 0.07061693439293491
801.5 0.06883374491027681
802.0 0.06707953069979665
802.5 0.06535540419235356
803.0 0.06366247781880673
803.5 0.062001864010015374
804.0 0.06037467519683864
804.5 0.05878202381013576
805.0 0.05722502228076589
805.5 0.05570478303958825
806.0 0.054222418517461984
806.5 0.05277904114524633
807.0 0.05137576335380043
807.5 0.050013697573983516
808.0 0.04869385305538818
808.5 0.04741574306320153
809.0 0.046177753274294686
809.5 0.0449782417143522
810.0 0.04381556640905862
810.5 0.0426880853840985
811.0 0.04159415666515638
811.5 0.040532138277916824
812.0 0.039500388248064365
812.5 0.038497264601283554
813.0 0.03752112536325893
813.5 0.036570328559675055
814.0 0.03564323221621647
814.5 0.03473819435856774
815.0 0.03385357301241339
815.5 0.03298772620343798
816.0 0.03213901195732604
816.5 0.03130578829976215
817.0 0.03048641325643082
817.5 0.029679244853016633
818.0 0.028882641115204118
818.5 0.028094960068677833
819.0 0.027314559739122314
819.5 0.02653979815222212
820.0 0.02576903333366179
820.5 0.025000623309125884
821.0 0.024232926104298932
821.5 0.023464299744865497
822.0 0.022693102256510125
822.5 0.021917691664917364
823.0 0.021136425995771757
823.5 0.020347663274757854
824.0 0.01954979552921907
824.5 0.018742293395629446
825.0 0.017925902253315536
825.5 0.0171014410535656
826.0 0.016269728747667883
826.5 0.01543158428691064
827.0 0.014587826622582123
827.5 0.013739274705970582
828.0 0.012886747488364271
828.5 0.012031063921051436
829.0 0.011173042955320333
829.5 0.010313503542459216
830.0 0.009453264633756333
830.5 0.008593145180499938
831.0 0.007733964133978279
831.5 0.006876540445479611
832.0 0.006021693066292186
832.5 0.005170240947704254
833.0 0.004323003041004067
833.5 0.003480798297479878
834.0 0.0026444456684199375
834.5 0.001814764105112497
835.0 0.0009925725588458092
835.5 0.00017868998090812485
