Wavelength Extinction
348.0 43769.70873669957
348.5 43474.317129634896
349.0 43178.94111486209
349.5 42884.3786602353
350.0 42591.427733608674
350.5 42300.88630283636
351.0 42013.552335772496
351.5 41730.22380027124
352.0 41451.69866418671
352.5 41178.77489537309
353.0 40912.2504616845
353.5 40652.92333097511
354.0 40401.59147109904
354.5 40159.05284991045
355.0 39926.10543526348
355.5 39703.54719501228
356.0 39492.176097011
356.5 39292.79009945009
357.0 39105.9092654248
357.5 38931.04895521537
358.0 38767.497548194784
358.5 38614.54342373605
359.0 38471.47496121218
359.5 38337.58053999615
360.0 38212.14853946097
360.5 38094.467338979644
361.0 37983.82531792517
361.5 37879.51085567054
362.0 37780.81233158876
362.5 37687.01812505282
363.0 37597.41661543573
363.5 37511.2961821105
364.0 37427.94520445011
364.5 37346.65206182756
365.0 37266.70513361586
365.5 37187.394785754754
366.0 37108.20703054241
366.5 37028.985899140316
367.0 36949.61364970397
367.5 36869.97254038885
368.0 36789.94482935044
368.5 36709.412774744225
369.0 36628.258634725695
369.5 36546.364667450325
370.0 36463.61313107362
370.5 36379.88628375103
371.0 36295.06638363807
371.5 36209.03568889022
372.0 36121.67645766294
372.5 36032.870948111755
373.0 35942.501418392116
373.5 35850.450126659525
374.0 35756.59933106946
374.5 35660.83128977742
375.0 35563.02826093886
375.5 35463.07237601837
376.0 35360.844601250166
376.5 35256.22527531073
377.0 35149.09473080773
377.5 35039.333300348844
378.0 34926.82131654173
378.5 34811.43911199406
379.0 34693.06701931351
379.5 34571.58537110774
380.0 34446.874499984435
380.5 34318.81473855124
381.0 34187.28641941584
381.5 34052.16987518589
382.0 33913.34543846908
382.5 33770.69344187307
383.0 33624.09421800552
383.5 33473.42809947411
384.0 33318.57541888651
384.5 33159.41650885038
385.0 32995.83259209174
385.5 32827.905187751894
386.0 32656.168533863583
386.5 32481.219038321837
387.0 32303.653109021732
387.5 32124.067153858316
388.0 31943.057580726643
388.5 31761.22079752178
389.0 31579.153212138775
389.5 31397.451232472686
390.0 31216.711266418573
390.5 31037.529721871495
391.0 30860.503006726507
391.5 30686.22752887866
392.0 30515.299696223014
392.5 30348.31591665463
393.0 30185.872598068563
393.5 30028.566148359867
394.0 29876.992975423607
394.5 29731.749487154826
395.0 29593.366497470714
395.5 29461.585486017615
396.0 29335.62566093156
396.5 29214.696921547635
397.0 29098.009167200908
397.5 28984.772297226442
398.0 28874.19621095932
398.5 28765.490807734604
399.0 28657.86598688738
399.5 28550.531647752705
400.0 28442.697689665656
400.5 28333.574011961307
401.0 28222.37051397473
401.5 28108.297095041
402.0 27990.56365449519
402.5 27868.38009167236
403.0 27740.956305907588
403.5 27607.502196535952
404.0 27467.37893339713
404.5 27320.77795882229
405.0 27168.174088955137
405.5 27010.04238264389
406.0 26846.857898736776
406.5 26679.095696082033
407.0 26507.230833527883
407.5 26331.73836992256
408.0 26153.093364114284
408.5 25971.770874951282
409.0 25788.24596128179
409.5 25602.993681954038
410.0 25416.487777442177
410.5 25229.165449601485
411.0 25041.423533325058
411.5 24853.656777079443
412.0 24666.25992933118
412.5 24479.627738546817
413.0 24294.154953192894
413.5 24110.236321735963
414.0 23928.266592642565
414.5 23748.640514379236
415.0 23571.752835412535
415.5 23397.998304209
416.0 23227.77166923517
416.5 23061.467678957593
417.0 22899.481081842816
417.5 22742.206626357376
418.0 22590.039060967825
418.5 22443.373134140704
419.0 22302.60359434256
419.5 22168.12519003993
420.0 22040.243469105742
420.5 21918.814947744504
421.0 21803.555160225667
421.5 21694.17959037268
422.0 21590.403722008985
422.5 21491.943038958034
423.0 21398.51302504328
423.5 21309.82916408817
424.0 21225.606939916142
424.5 21145.56183635065
425.0 21069.40933721515
425.5 20996.864926333088
426.0 20927.644087527904
426.5 20861.46230462305
427.0 20798.03506144198
427.5 20737.077841808135
428.0 20678.306129544966
428.5 20621.435408475925
429.0 20566.18116242445
429.5 20512.258875214004
430.0 20459.384030668025
430.5 20407.272112609964
431.0 20355.63860486327
431.5 20304.19899125139
432.0 20252.668755597773
432.5 20200.763381725865
433.0 20148.19835345912
433.5 20094.68915462098
434.0 20039.95866932807
434.5 19983.896491684493
435.0 19926.55700597405
435.5 19868.001612795964
436.0 19808.291712749487
436.5 19747.488706433858
437.0 19685.653994448312
437.5 19622.848977392092
438.0 19559.135055864437
438.5 19494.573630464594
439.0 19429.22610179179
439.5 19363.153870445276
440.0 19296.418337024286
440.5 19229.080902128066
441.0 19161.202966355846
441.5 19092.845930306878
442.0 19024.071194580392
442.5 18954.940159775637
443.0 18885.514226491847
443.5 18815.854795328265
444.0 18746.02078198781
444.5 18676.060103088254
445.0 18606.017632962852
445.5 18535.93824583907
446.0 18465.86681594437
446.5 18395.84821750621
447.0 18325.92732475205
447.5 18256.14901190936
448.0 18186.5581532056
448.5 18117.19962286823
449.0 18048.11829512471
449.5 17979.359044202512
450.0 17910.96674432909
450.5 17842.986269731908
451.0 17775.462494638425
451.5 17708.440293276108
452.0 17641.964539872417
452.5 17576.080108654816
453.0 17510.83187385077
453.5 17446.264709687734
454.0 17382.423490393176
454.5 17319.353090194556
455.0 17257.098383319328
455.5 17195.70424399497
456.0 17135.215545348627
456.5 17075.675678604337
457.0 17017.12362474762
457.5 16959.597548034068
458.0 16903.13561271927
458.5 16847.775983058822
459.0 16793.55682330831
459.5 16740.516297723327
460.0 16688.692570559462
460.5 16638.123806072304
461.0 16588.848168517445
461.5 16540.90382215048
462.0 16494.32893122699
462.5 16449.161660002577
463.0 16405.440172732822
463.5 16363.202633673318
464.0 16322.487207079655
464.5 16283.332057207428
465.0 16245.775348312223
465.5 16209.855244649632
466.0 16175.609910475248
466.5 16143.077510044655
467.0 16112.29620761345
467.5 16083.30416743722
468.0 16056.139553771556
468.5 16030.840530872048
469.0 16007.44526299429
469.5 15985.99191439387
470.0 15966.51864932638
470.5 15949.063632047404
471.0 15933.66502681254
471.5 15920.360997877375
472.0 15909.189709497501
472.5 15900.18932592851
473.0 15893.39801142599
473.5 15888.853930245532
474.0 15886.595246642724
474.5 15886.660124873162
475.0 15889.074861563791
475.5 15893.77784109484
476.0 15900.667965721237
476.5 15909.643949749347
477.0 15920.604507485523
477.5 15933.448353236114
478.0 15948.074201307481
478.5 15964.38076600598
479.0 15982.266761637959
479.5 16001.630902509776
480.0 16022.37190292779
480.5 16044.388477198352
481.0 16067.57933962782
481.5 16091.843204522545
482.0 16117.078786188884
482.5 16143.184798933193
483.0 16170.059957061825
483.5 16197.602974881134
484.0 16225.71256669748
484.5 16254.287446817212
485.0 16283.226329546693
485.5 16312.427929192268
486.0 16341.790960060298
486.5 16371.21413645714
487.0 16400.59617268914
487.5 16429.835783062663
488.0 16458.83168188406
488.5 16487.482583459685
489.0 16515.68720209589
489.5 16543.34425209904
490.0 16570.35244777548
490.5 16596.61050343157
491.0 16622.017133373665
491.5 16646.471051908116
492.0 16669.870973341283
492.5 16692.115611979516
493.0 16713.10368212917
493.5 16732.738320776767
494.0 16751.024808120193
494.5 16768.07080232341
495.0 16783.988431181562
495.5 16798.889822489786
496.0 16812.88710404322
496.5 16826.092403637005
497.0 16838.617849066275
497.5 16850.575568126173
498.0 16862.077688611836
498.5 16873.236338318402
499.0 16884.16364504101
499.5 16894.971736574804
500.0 16905.772740714914
500.5 16916.678785256485
501.0 16927.80199799465
501.5 16939.25450672456
502.0 16951.148439241337
502.5 16963.595923340134
503.0 16976.70908681608
503.5 16990.60005746432
504.0 17005.380963079988
504.5 17021.163931458224
505.0 17038.06109039417
505.5 17056.18456768296
506.0 17075.64649111974
506.5 17096.55898849964
507.0 17119.034187617806
507.5 17143.184201105123
508.0 17169.08378867709
508.5 17196.689976209378
509.0 17225.936651291056
509.5 17256.757701511167
510.0 17289.08701445878
510.5 17322.858477722944
511.0 17358.00597889272
511.5 17394.463405557162
512.0 17432.164645305318
512.5 17471.043585726264
513.0 17511.03411440904
513.5 17552.07011894271
514.0 17594.08548691633
514.5 17637.014105918955
515.0 17680.78986353964
515.5 17725.346647367445
516.0 17770.618344991424
516.5 17816.53884400064
517.0 17863.04203198414
517.5 17910.061796530987
518.0 17957.532025230234
518.5 18005.386605670938
519.0 18053.55942544216
519.5 18101.984372132945
520.0 18150.595333332363
520.5 18199.326196629467
521.0 18248.110849613313
521.5 18296.88317987295
522.0 18345.577074997447
522.5 18394.126422575853
523.0 18442.465110197223
523.5 18490.52702545062
524.0 18538.246055925098
524.5 18585.55608920971
525.0 18632.391012893517
525.5 18678.684714565574
526.0 18724.371081814937
526.5 18769.38400223066
527.0 18813.657363405633
527.5 18857.21079498647
528.0 18900.40325148137
528.5 18943.67761743076
529.0 18987.47677737508
529.5 19032.243615854757
530.0 19078.421017410245
530.5 19126.45186658196
531.0 19176.779047910353
531.5 19229.845445935847
532.0 19286.093945198885
532.5 19345.967430239903
533.0 19409.908785599335
533.5 19478.36089581761
534.0 19551.76664543517
534.5 19630.568918992445
535.0 19715.21060102988
535.5 19806.1345760879
536.0 19903.78372870695
536.5 20008.600943427457
537.0 20121.014799983423
537.5 20241.064467396904
538.0 20368.362862513884
538.5 20502.50121020123
539.0 20643.070735325793
539.5 20789.66266275444
540.0 20941.868217354033
540.5 21099.278623991428
541.0 21261.485107533492
541.5 21428.078892847087
542.0 21598.65120479907
542.5 21772.793268256304
543.0 21950.096308085656
543.5 22130.151549153983
544.0 22312.550216328145
544.5 22496.883534475004
545.0 22682.742728461424
545.5 22869.719023154263
546.0 23057.403643420388
546.5 23245.387814126654
547.0 23433.262760139925
547.5 23620.619706327063
548.0 23807.04987755493
548.5 23992.14449869039
549.0 24175.494794600305
549.5 24356.71478958479
550.0 24535.7615809536
550.5 24712.857352792675
551.0 24888.231165482408
551.5 25062.112079403196
552.0 25234.72915493544
552.5 25406.31145245953
553.0 25577.088032355867
553.5 25747.28795500485
554.0 25917.14028078687
554.5 26086.874070082322
555.0 26256.71838327161
555.5 26426.902280735125
556.0 26597.654822853267
556.5 26769.205070006425
557.0 26941.78208257501
557.5 27115.614920939403
558.0 27290.93264548001
558.5 27467.964316577225
559.0 27646.938994611446
559.5 27828.085739963062
560.0 28011.633613012484
560.5 28197.811674140095
561.0 28386.848983726297
561.5 28578.974602151487
562.0 28774.41758979606
562.5 28973.40700704042
563.0 29176.171914264953
563.5 29382.94137185006
564.0 29593.944440176132
564.5 29809.410179623574
565.0 30029.567650572782
565.5 30254.645913404147
566.0 30484.874028498067
566.5 30720.461407606872
567.0 30961.493788491945
567.5 31208.008911446876
568.0 31460.04441080177
568.5 31717.637920886715
569.0 31980.82707603182
569.5 32249.649510567186
570.0 32524.14285882291
570.5 32804.3447551291
571.0 33090.292833815845
571.5 33382.024729213255
572.0 33679.57807565142
572.5 33982.990507460454
573.0 34292.29965897045
573.5 34607.54316451152
574.0 34928.75865841373
574.5 35255.98377500722
575.0 35589.256148622066
575.5 35928.61341358838
576.0 36274.093204236255
576.5 36625.7331548958
577.0 36983.55921213983
577.5 37347.36944472285
578.0 37716.75470482262
578.5 38091.29830081327
579.0 38470.58354106899
579.5 38854.19373396393
580.0 39241.71218787224
580.5 39632.722211168075
581.0 40026.807112225615
581.5 40423.550199419005
582.0 40822.5347811224
582.5 41223.34416570996
583.0 41625.561661555854
583.5 42028.77057703423
584.0 42432.554220519254
584.5 42836.49590038509
585.0 43240.17892500588
585.5 43643.1866027558
586.0 44045.102242008994
586.5 44445.50915113963
587.0 44843.99063852187
587.5 45240.13155099621
588.0 45633.76711655038
588.5 46025.25790682404
589.0 46415.03068720957
589.5 46803.51222309937
590.0 47191.12927988581
590.5 47578.30862296129
591.0 47965.477017718185
591.5 48353.06122954888
592.0 48741.48802384578
592.5 49131.18416600124
593.0 49522.57642140767
593.5 49916.09155545745
594.0 50312.15633354297
594.5 50711.1975210566
595.0 51113.64188339074
595.5 51519.914523418076
596.0 51930.20895398428
596.5 52344.25153486006
597.0 52761.71244639923
597.5 53182.26186895561
598.0 53605.56998288302
598.5 54031.30696853526
599.0 54459.143006266146
599.5 54888.748276429484
600.0 55319.792959379105
600.5 55751.94723546881
601.0 56184.88128505243
601.5 56618.26528848375
602.0 57051.7694261166
602.5 57485.0638783048
603.0 57917.81882540215
603.5 58349.70444776247
604.0 58780.39092573958
604.5 59209.54843968728
605.0 59636.84716995939
605.5 60061.95729690973
606.0 60484.54900089211
606.5 60904.29246226033
607.0 61320.85786136822
607.5 61733.91537856959
608.0 62143.135194218245
608.5 62548.187488668016
609.0 62948.76950785548
609.5 63344.99448985304
610.0 63737.30163087875
610.5 64126.13884948711
611.0 64511.95406423262
611.5 64895.19519366974
612.0 65276.310156352985
612.5 65655.74687083684
613.0 66033.95325567578
613.5 66411.37722942431
614.0 66788.46671063693
614.5 67165.66961786813
615.0 67543.43386967237
615.5 67922.20738460416
616.0 68302.43808121799
616.5 68684.57387806835
617.0 69069.06269370973
617.5 69456.35244669662
618.0 69846.89105558352
618.5 70241.1264389249
619.0 70639.50651527525
619.5 71042.4792031891
620.0 71450.49242122087
620.5 71863.99408792514
621.0 72283.43212185633
621.5 72709.25444156895
622.0 73141.90896561749
622.5 73581.74764452584
623.0 74028.67668559367
623.5 74482.47297792698
624.0 74942.91339686865
624.5 75409.77481776151
625.0 75882.83411594843
625.5 76361.86816677226
626.0 76846.65384557586
626.5 77336.9680277021
627.0 77832.58758849384
627.5 78333.28940329395
628.0 78838.85034744524
628.5 79349.04729629064
629.0 79863.65712517296
629.5 80382.45670943506
630.0 80905.22292441984
630.5 81431.73264547013
631.0 81961.76274792876
631.5 82495.09010713865
632.0 83031.49159844263
632.5 83570.74409718356
633.0 84112.62447870431
633.5 84656.90961834772
634.0 85203.37639145667
634.5 85751.80169527602
635.0 86302.01022444032
635.5 86853.9757553348
636.0 87407.70104863105
636.5 87963.18886500076
637.0 88520.44196511555
637.5 89079.46310964711
638.0 89640.25505926706
638.5 90202.82057464708
639.0 90767.16241645876
639.5 91333.28334537381
640.0 91901.18612206384
640.5 92470.87350720055
641.0 93042.34826145554
641.5 93615.61314550047
642.0 94190.670920007
642.5 94767.52434564679
643.0 95346.17618309148
643.5 95926.62660052335
644.0 96508.7060933676
644.5 97091.9737048837
645.0 97675.96411012241
645.5 98260.2119841345
646.0 98844.25200197076
646.5 99427.61883868191
647.0 100009.84716931876
647.5 100590.47166893205
648.0 101169.02701257258
648.5 101745.04787529107
649.0 102318.06893213831
649.5 102887.62485816507
650.0 103453.25032842212
650.5 104014.4800179602
651.0 104570.8486018301
651.5 105121.89247681756
652.0 105667.24960513996
652.5 106206.71438375697
653.0 106740.0945511396
653.5 107267.19784575893
654.0 107787.83200608596
654.5 108301.80477059176
655.0 108808.92387774738
655.5 109308.99706602388
656.0 109801.83207389228
656.5 110287.23663982363
657.0 110765.01850228901
657.5 111234.98539975945
658.0 111696.94507070597
658.5 112150.70525359965
659.0 112596.07368691152
659.5 113032.85879261998
660.0 113460.90550156424
660.5 113880.11288635335
661.0 114290.38440225161
661.5 114691.62350452329
662.0 115083.7336484327
662.5 115466.61828924411
663.0 115840.18088222177
663.5 116204.32488263003
664.0 116558.95374573313
664.5 116903.97092679534
665.0 117239.27988108098
665.5 117564.78406385431
666.0 117880.38693037962
666.5 118185.99193592119
667.0 118481.50253574335
667.5 118766.8221851103
668.0 119041.85433928636
668.5 119306.51558801132
669.0 119560.92877097559
669.5 119805.38062201119
670.0 120040.16239770065
670.5 120265.56535462658
671.0 120481.88074937148
671.5 120689.39983851805
672.0 120888.41387864873
672.5 121079.2141263462
673.0 121262.09183819292
673.5 121437.33827077158
674.0 121605.24468066468
674.5 121766.10232445484
675.0 121920.20245872457
675.5 122067.83634005651
676.0 122209.29522503319
676.5 122344.8703702372
677.0 122474.8530322511
677.5 122599.53446765749
678.0 122719.20593303893
678.5 122834.15868497797
679.0 122944.68360992956
679.5 123051.03572175038
680.0 123153.4047074472
680.5 123251.97332098057
681.0 123346.92431631096
681.5 123438.44044739887
682.0 123526.70446820486
682.5 123611.89913268936
683.0 123694.20719481292
683.5 123773.81140853603
684.0 123850.89452781918
684.5 123925.6393066229
685.0 123998.22849890767
685.5 124068.84485863402
686.0 124137.67113976242
686.5 124204.89009625337
687.0 124270.68448206742
687.5 124335.23705116502
688.0 124398.73055750673
688.5 124461.347755053
689.0 124523.27139776433
689.5 124584.68423960128
690.0 124645.99894787937
690.5 124708.6678981493
691.0 124774.43722419234
691.5 124845.05307756487
692.0 124922.2616098233
692.5 125007.808972524
693.0 125103.44131722335
693.5 125210.90479547778
694.0 125331.94555884365
694.5 125468.30975887734
695.0 125621.74354713528
695.5 125793.99307517386
696.0 125986.80449454942
696.5 126201.92395681837
697.0 126440.6587677111
697.5 126700.49103691877
698.0 126976.93092374872
698.5 127265.47221919792
699.0 127561.60871426333
699.5 127860.83419994196
700.0 128158.64246723079
700.5 128450.52730712683
701.0 128731.98251062701
701.5 128999.48212994353
702.0 129255.3394796602
702.5 129504.02117576398
703.0 129749.99723147218
703.5 129997.73766000211
704.0 130251.71247457106
704.5 130516.39168839632
705.0 130796.24531469519
705.5 131095.743366685
706.0 131419.35585758302
706.5 131771.5416020879
707.0 132154.69600871057
707.5 132566.75470751777
708.0 133005.07158904176
708.5 133467.00054381505
709.0 133949.89546236987
709.5 134451.1102352387
710.0 134967.99875295386
710.5 135497.91490604763
711.0 136038.2125850525
711.5 136586.24568050078
712.0 137139.36808292486
712.5 137694.93368285702
713.0 138250.29637082978
713.5 138802.8100373784
714.0 139350.36352258245
714.5 139892.97406867566
715.0 140431.18818458106
715.5 140965.5523792219
716.0 141496.61316152127
716.5 142024.9170404023
717.0 142551.01052478811
717.5 143075.44012360185
718.0 143598.7523457667
718.5 144121.49370020576
719.0 144644.21069584216
719.5 145167.44984159904
720.0 145691.75764639952
720.5 146217.6806191668
721.0 146745.67442628284
721.5 147275.50623317165
722.0 147806.62778920354
722.5 148338.48920361337
723.0 148870.5405856361
723.5 149402.23204450676
724.0 149933.0136894602
724.5 150462.33562973153
725.0 150989.64797455556
725.5 151514.4008331674
726.0 152036.04431480184
726.5 152554.02852869395
727.0 153067.80358407868
727.5 153576.81959019095
728.0 154080.52665626578
728.5 154578.37489153806
729.0 155069.8144052428
729.5 155554.2953066149
730.0 156031.2677048894
730.5 156500.1817093012
731.0 156960.4874290853
731.5 157411.60014162672
732.0 157852.0438636891
732.5 158279.3982041301
733.0 158691.19729932063
733.5 159084.97528563163
734.0 159458.26629943398
734.5 159808.6044770986
735.0 160133.52395499632
735.5 160430.55886949805
736.0 160697.48609734874
736.5 160935.76106335808
737.0 161149.6948833863
737.5 161343.67352766087
738.0 161522.08296640916
738.5 161689.30916985866
739.0 161849.73810823684
739.5 162007.75575177112
740.0 162167.74807068895
740.5 162333.5679872803
741.0 162503.85900786173
741.5 162674.31994446606
742.0 162840.61624625605
742.5 162998.4133623942
743.0 163143.37674204333
743.5 163271.17183436602
744.0 163377.46408852492
744.5 163457.91895368276
745.0 163508.83636132732
745.5 163530.71461317156
746.0 163525.75747435738
746.5 163496.17362491178
747.0 163444.1717448619
747.5 163371.9605142348
748.0 163281.74861305763
748.5 163175.7447213574
749.0 163056.1575191612
749.5 162924.6987959792
750.0 162780.7970458298
750.5 162623.2253253055
751.0 162450.7566346061
751.5 162262.1639739314
752.0 162056.2203434811
752.5 161831.69874345508
753.0 161586.95381062652
753.5 161317.69223241587
754.0 161018.58778156046
754.5 160684.3118781429
755.0 160309.53594224577
