Wavelength Extinction
254.0 63015.127324925415
254.5 62457.69627689845
255.0 61905.378375318134
255.5 61361.83020883296
256.0 60830.70836609142
256.5 60315.669435742006
257.0 59820.3700064332
257.5 59348.46666681351
258.0 58903.616005531425
258.5 58489.458429435865
259.0 58108.286811233585
259.5 57760.05402058635
260.0 57444.479096523806
260.5 57161.281078075604
261.0 56910.179004271406
261.5 56690.89191414083
262.0 56503.13884671358
262.5 56346.63884101926
263.0 56221.11093608753
263.5 56126.27417094805
264.0 56061.84758463045
264.5 56027.55021616441
265.0 56023.10110457957
265.5 56048.1530379269
266.0 56101.28496607999
266.5 56180.20484385778
267.0 56282.595501952004
267.5 56406.139771054426
268.0 56548.5204818568
268.5 56707.420465050884
269.0 56880.52255132842
269.5 57065.50957138117
270.0 57260.06435590087
270.5 57461.86973557929
271.0 57668.608541108166
271.5 57877.96360317926
272.0 58087.61775248432
272.5 58295.25381971509
273.0 58498.55463556335
273.5 58695.25362804151
274.0 58884.14451928621
274.5 59065.02685449257
275.0 59237.739872463106
275.5 59402.12281200033
276.0 59558.01491190676
276.5 59705.2554109849
277.0 59843.68354803727
277.5 59973.13856186637
278.0 60093.45969127472
278.5 60204.486175064834
279.0 60306.05725203923
279.5 60398.01216100041
280.0 60480.19014075089
280.5 60552.43043009318
281.0 60614.5722678298
281.5 60666.4646863711
282.0 60708.222182389625
282.5 60740.24918709631
283.0 60762.96483129634
283.5 60776.78824579488
284.0 60782.138561397114
284.5 60779.43490890821
285.0 60769.09641913334
285.5 60751.54222287771
286.0 60727.191450946455
286.5 60696.463234144765
287.0 60659.77670327782
287.5 60617.550989150805
288.0 60570.20522256888
288.5 60518.15853433723
289.0 60461.830055261016
289.5 60401.638916145435
290.0 60338.00424779564
290.5 60271.345181016826
291.0 60202.08084661415
291.5 60130.63037539281
292.0 60057.66157774918
292.5 59985.35627475958
293.0 59916.46606293628
293.5 59853.74357177587
294.0 59799.94143077497
294.5 59757.81226943017
295.0 59730.10871723809
295.5 59719.58340369531
296.0 59728.98895829846
296.5 59761.07801054413
297.0 59818.603189928916
297.5 59904.317125949434
298.0 60020.972448102286
298.5 60171.32178588407
299.0 60358.117768791395
299.5 60584.11302632086
300.0 60851.3942743551
300.5 61157.505815823526
301.0 61498.095457381576
301.5 61868.8046721912
302.0 62265.274933414345
302.5 62683.14771421293
303.0 63118.0644877489
303.5 63565.6667271842
304.0 64021.59590568078
304.5 64481.493496400544
305.0 64941.000972505455
305.5 65395.77906842299
306.0 65842.74573157047
306.5 66280.82833035362
307.0 66709.13438605636
307.5 67126.7714199627
308.0 67532.84695335658
308.5 67926.46850752192
309.0 68306.74360374267
309.5 68672.77976330282
310.0 69023.6845074863
310.5 69358.56535757706
311.0 69676.52983485903
311.5 69976.68546061621
312.0 70258.1397561325
312.5 70519.92161692488
313.0 70759.42990600753
313.5 70972.52678601966
314.0 71155.0144806049
314.5 71302.6952134068
315.0 71411.37120806894
315.5 71476.8446882349
316.0 71494.91787754821
316.5 71461.3929996525
317.0 71372.17450638703
317.5 71228.60332147959
318.0 71040.06872363732
318.5 70816.60993478126
319.0 70568.26617683245
319.5 70305.07667171187
320.0 70037.08064134057
320.5 69774.31730763956
321.0 69526.82589252986
321.5 69304.62496388113
322.0 69114.03858134532
322.5 68953.46091356663
323.0 68820.26006070091
323.5 68711.80412290408
324.0 68625.46120033204
324.5 68558.59939314067
325.0 68508.58680148587
325.5 68472.79152552351
326.0 68448.58166540951
326.5 68433.32532129975
327.0 68424.39059335015
327.5 68419.14558171657
328.0 68414.9583865549
328.5 68409.19710802105
329.0 68399.22984627092
329.5 68382.42470146038
330.0 68356.14977374535
330.5 68317.7731632817
331.0 68265.0205225743
331.5 68197.52155178381
332.0 68115.53723723695
332.5 68019.3289773242
333.0 67909.15817043606
333.5 67785.28621496298
334.0 67647.97450929544
334.5 67497.48445182394
335.0 67334.07744093891
335.5 67158.01487503086
336.0 66969.55815249025
336.5 66768.96867170757
337.0 66556.50783107326
337.5 66332.43702897786
338.0 66097.01766381178
338.5 65850.51113396553
339.0 65593.17883782959
339.5 65325.2821737944
340.0 65047.10354636804
340.5 64759.21616728564
341.0 64462.4056678281
341.5 64157.46252139392
342.0 63845.177201381535
342.5 63526.340181189415
343.0 63201.74193421604
343.5 62872.172933859845
344.0 62538.423653519334
344.5 62201.28456659293
345.0 61861.546146479115
345.5 61519.99886657636
346.0 61177.433200283114
346.5 60834.63962099785
347.0 60492.40860211904
347.5 60151.53061704513
348.0 59812.79613917459
348.5 59476.99564190589
349.0 59144.91959863749
349.5 58817.35848276785
350.0 58495.10276769544
350.5 58178.94292681872
351.0 57869.66943353616
351.5 57568.072761246214
352.0 57274.94338334736
352.5 56991.07177323804
353.0 56717.24840431675
353.5 56454.26374998192
354.0 56202.90828363202
354.5 55963.97247866554
355.0 55737.91121570563
355.5 55523.64286769162
356.0 55319.646326365415
356.5 55124.4004484263
357.0 54936.38409057351
357.5 54754.076109506306
358.0 54575.95536192395
358.5 54400.5007045257
359.0 54226.190994010794
359.5 54051.505087078505
360.0 53874.92184042808
360.5 53694.92011075878
361.0 53509.97875476985
361.5 53318.576629160554
362.0 53119.19259063015
362.5 52910.30549587789
363.0 52690.394201603034
363.5 52457.93756450483
364.0 52211.41444128253
364.5 51949.3036886354
365.0 51670.0841632627
365.5 51372.23472186367
366.0 51054.23422113758
366.5 50714.56151778367
367.0 50351.69546850121
367.5 49964.476736795215
368.0 49554.18379190377
368.5 49123.101710067334
369.0 48673.51873829384
369.5 48207.723123591204
370.0 47728.00311296738
370.5 47236.646953430274
371.0 46735.94289198784
371.5 46228.179175648
372.0 45715.64405141867
372.5 45200.62576630781
373.0 44685.41256732332
373.5 44172.292701473154
374.0 43663.55441576523
374.5 43161.485957207486
375.0 42668.37557280785
375.5 42186.51150957425
376.0 41718.18201451462
376.5 41265.56679130946
377.0 40829.27564365115
377.5 40408.73701189232
378.0 40003.35047520659
378.5 39612.51561276757
379.0 39235.63200374886
379.5 38872.099227324055
380.0 38521.31686266677
380.5 38182.6844889506
381.0 37855.60168534916
381.5 37539.46803103606
382.0 37233.68310518489
382.5 36937.64648696927
383.0 36650.757755562794
383.5 36372.41649013908
384.0 36102.02226987172
384.5 35838.97467393433
385.0 35582.6732815005
385.5 35332.51767174386
386.0 35087.907423838
386.5 34848.24211695652
387.0 34612.921330273035
387.5 34381.34464296115
388.0 34152.91163419446
388.5 33927.02188314658
389.0 33703.08922441009
389.5 33480.845988579604
390.0 33260.337877421494
390.5 33041.62382307049
391.0 32824.762757661316
391.5 32609.81361332872
392.0 32396.835322207415
392.5 32185.886816432143
393.0 31977.02702813763
393.5 31770.31488945861
394.0 31565.809332529803
394.5 31363.569289485953
395.0 31163.65369246179
395.5 30966.12147359204
396.0 30771.031565011435
396.5 30578.442898854704
397.0 30388.414407256583
397.5 30201.0050223518
398.0 30016.27367627508
398.5 29834.27930116117
399.0 29655.080829144783
399.5 29478.737192360655
400.0 29305.307322943525
400.5 29134.850153028114
401.0 28967.42461474916
401.5 28803.089640241393
402.0 28641.904161639533
402.5 28483.92711107833
403.0 28329.2174206925
403.5 28177.834022616775
404.0 28029.837513987706
404.5 27885.300792229813
405.0 27744.302265791837
405.5 27606.92036907503
406.0 27473.233536480686
406.5 27343.32020241005
407.0 27217.25880126441
407.5 27095.12776744502
408.0 26977.005535353164
408.5 26862.970539390102
409.0 26753.101213957107
409.5 26647.475993455442
410.0 26546.173312286384
410.5 26449.2716048512
411.0 26356.84930555116
411.5 26268.984848787524
412.0 26185.75666896158
412.5 26107.24320047458
413.0 26033.522877727803
413.5 25964.674135122514
414.0 25900.77540705998
414.5 25841.90512794148
415.0 25788.141732168275
415.5 25739.56365414163
416.0 25696.249328262827
416.5 25658.27718893313
417.0 25625.725670553806
417.5 25598.673207526128
418.0 25577.198234251355
418.5 25561.37918513077
419.0 25551.294494565635
419.5 25547.022596957217
420.0 25548.641926706794
420.5 25556.230918215628
421.0 25569.86318960586
421.5 25589.48959831664
422.0 25614.931188022827
422.5 25646.002774123743
423.0 25682.51917201872
423.5 25724.29519710708
424.0 25771.14566478814
424.5 25822.885390461233
425.0 25879.329189525677
425.5 25940.2918773808
426.0 26005.588269425923
426.5 26075.033181060375
427.0 26148.441427683472
427.5 26225.627824694544
428.0 26306.40718749291
428.5 26390.594331477896
429.0 26478.00407204883
429.5 26568.45122460503
430.0 26661.750604545814
430.5 26757.717027270523
431.0 26856.16530817847
431.5 26956.91026266898
432.0 27059.766706141374
432.5 27164.54945399498
433.0 27271.073321629123
433.5 27379.153124443124
434.0 27488.60367783631
434.5 27599.239797207996
435.0 27710.876297957522
435.5 27823.327995484196
436.0 27936.40970518735
436.5 28049.936242466305
437.0 28163.723883201037
437.5 28277.64983187563
438.0 28391.672931090674
438.5 28505.757737305612
439.0 28619.86880697989
439.5 28733.97069657296
440.0 28848.02796254427
440.5 28962.00516135327
441.0 29075.866849459402
441.5 29189.577583322116
442.0 29303.101919400862
442.5 29416.404414155088
443.0 29529.44962404424
443.5 29642.202105527762
444.0 29754.626415065108
444.5 29866.687109115723
445.0 29978.348744139053
445.5 30089.57587659455
446.0 30200.333062941663
446.5 30310.584859639832
447.0 30420.29582314851
447.5 30529.430509927148
448.0 30637.95347643519
448.5 30745.82927913208
449.0 30853.02247447727
449.5 30959.49761893021
450.0 31065.219268950346
450.5 31170.15198099713
451.0 31274.26031153
451.5 31377.50881700841
452.0 31479.862053891804
452.5 31581.284578639636
453.0 31681.740947711347
453.5 31781.195717566392
454.0 31879.613444664214
454.5 31976.95868546426
455.0 32073.19599642598
455.5 32168.289934008826
456.0 32262.20505467224
456.5 32354.905914875664
457.0 32446.35707107856
457.5 32536.523079740367
458.0 32625.368497320535
458.5 32712.857880278512
459.0 32798.97437791113
459.5 32883.828428368855
460.0 32967.583787127136
460.5 33050.40439075872
461.0 33132.45417583639
461.5 33213.89707893291
462.0 33294.89703662103
462.5 33375.61798547351
463.0 33456.22386206312
463.5 33536.87860296261
464.0 33617.746144744764
464.5 33698.99042398232
465.0 33780.775377248065
465.5 33863.264941114736
466.0 33946.6230521551
466.5 34031.01364694194
467.0 34116.600662048
467.5 34203.548034046034
468.0 34292.01969950882
468.5 34382.17959500911
469.0 34474.19165711967
469.5 34568.21982241328
470.0 34664.428027462665
470.5 34762.980208840614
471.0 34864.04030311987
471.5 34967.772246873225
472.0 35074.339976673415
472.5 35183.907429093204
473.0 35296.63854070536
473.5 35412.69724808265
474.0 35532.247487797824
474.5 35655.45319642365
475.0 35782.4783105329
475.5 35913.48676669831
476.0 36048.64250149267
476.5 36188.10945148872
477.0 36332.05129074009
477.5 36480.49561013824
478.0 36633.11179859231
478.5 36789.5110055229
479.0 36949.30438035059
479.5 37112.103072495964
480.0 37277.518231379596
480.5 37445.16100642208
481.0 37614.64254704401
481.5 37785.574002665955
482.0 37957.566522708505
482.5 38130.23125659224
483.0 38303.17935373776
483.5 38476.02196356564
484.0 38648.37023549647
484.5 38819.83531895081
485.0 38990.02836334929
485.5 39158.56051811246
486.0 39325.04293266091
486.5 39489.086756415236
487.0 39650.30313879601
487.5 39808.30322922382
488.0 39962.69817711926
488.5 40113.09913190291
489.0 40259.11724299536
489.5 40400.36365981717
490.0 40536.512094293525
490.5 40667.570585410496
491.0 40793.658391842204
491.5 40914.89484729695
492.0 41031.399285483065
492.5 41143.29104010887
493.0 41250.68944488267
493.5 41353.713833512804
494.0 41452.48353970757
494.5 41547.11789717532
495.0 41637.73623962435
495.5 41724.45790076298
496.0 41807.402214299545
496.5 41886.688513942354
497.0 41962.43613339972
497.5 42034.764406379974
498.0 42103.79266659144
498.5 42169.64024774244
499.0 42232.42648354128
499.5 42292.27070769629
500.0 42349.29225391579
500.5 42403.610455908085
501.0 42455.34464738152
501.5 42504.614162044396
502.0 42551.53833360503
502.5 42596.23649577176
503.0 42638.8279822529
503.5 42679.43212675677
504.0 42718.16826299168
504.5 42755.15572466597
505.0 42790.51384548794
505.5 42824.361959165915
506.0 42856.819399408225
506.5 42888.00549992318
507.0 42918.0395944191
507.5 42947.04101660431
508.0 42975.12884689291
508.5 43002.38583068915
509.0 43028.820859128995
509.5 43054.43386058767
510.0 43079.224763440434
510.5 43103.193496062515
511.0 43126.339986829145
511.5 43148.66416411556
512.0 43170.165956297
512.5 43190.84529174871
513.0 43210.70209884592
513.5 43229.73630596387
514.0 43247.947841477784
514.5 43265.33663376291
515.0 43281.90261119449
515.5 43297.64570214776
516.0 43312.56583499796
516.5 43326.6629381203
517.0 43339.936939890045
517.5 43352.38776868241
518.0 43364.01535287267
518.5 43374.81962083603
519.0 43384.800500947735
519.5 43393.957921583016
520.0 43402.29181111712
520.5 43409.80209792529
521.0 43416.48871038274
521.5 43422.35157686473
522.0 43427.39062574648
522.5 43431.60578540323
523.0 43434.99698421023
523.5 43437.56415054271
524.0 43439.3072127759
524.5 43440.22609928504
525.0 43440.32073844538
525.5 43439.59105863214
526.0 43438.03698822057
526.5 43435.65845558589
527.0 43432.45538910336
527.5 43428.427717148195
528.0 43423.57536809565
528.5 43417.898270320955
529.0 43411.39635219934
529.5 43404.06954210605
530.0 43395.917768416315
530.5 43386.94095950539
531.0 43377.139043748495
531.5 43366.511949520864
532.0 43355.05960519775
532.5 43342.78193915438
533.0 43329.67887976599
533.5 43315.75035540782
534.0 43300.996294455115
534.5 43285.4166252831
535.0 43269.01127626701
535.5 43251.780175782085
536.0 43233.72325220357
536.5 43214.840433906706
537.0 43195.13164926671
537.5 43174.59682665884
538.0 43153.23589445832
538.5 43131.04878104038
539.0 43108.03541478028
539.5 43084.195724053236
540.0 43059.5296372345
540.5 43034.037082699295
541.0 43007.71798882288
541.5 42980.57228398047
542.0 42952.599896547305
542.5 42923.804052375475
543.0 42894.25366955404
543.5 42864.07817027179
544.0 42833.40923436482
544.5 42802.37854166926
545.0 42771.11777202121
545.5 42739.75860525677
546.0 42708.43272121205
546.5 42677.27179972315
547.0 42646.4075206262
547.5 42615.97156375729
548.0 42586.09560895253
548.5 42556.911336048026
549.0 42528.5504248799
549.5 42501.144555284234
550.0 42474.82540709717
550.5 42449.72466015478
551.0 42425.9739942932
551.5 42403.70508934852
552.0 42383.04962515686
552.5 42364.139281554315
553.0 42347.105738377
553.5 42332.08067546104
554.0 42319.1957726425
554.5 42308.582709757524
555.0 42300.37316664221
555.5 42294.69882313266
556.0 42291.69135906499
556.5 42291.482454275305
557.0 42294.203788599705
557.5 42299.98704187431
558.0 42308.963893935215
558.5 42321.26602461853
559.0 42337.025113760385
559.5 42356.37284119686
560.0 42379.440886764074
560.5 42406.360930298135
561.0 42437.25260501805
561.5 42472.16966098101
562.0 42511.14343911224
562.5 42554.20526172396
563.0 42601.38645112841
563.5 42652.71832963783
564.0 42708.23221956443
564.5 42767.959443220454
565.0 42831.93132291813
565.5 42900.17918096968
566.0 42972.73433968734
566.5 43049.628121383335
567.0 43130.8918483699
567.5 43216.55684295927
568.0 43306.65442746366
568.5 43401.21592419531
569.0 43500.27265546646
569.5 43603.855943589326
570.0 43711.99711087614
570.5 43824.72747963913
571.0 43942.078372190525
571.5 44064.08111084256
572.0 44190.76701790748
572.5 44322.167415697484
573.0 44458.313626524825
573.5 44599.23697270172
574.0 44744.9687765404
574.5 44895.5403603531
575.0 45050.98304645206
575.5 45211.328157149495
576.0 45376.60701475763
576.5 45546.85094158872
577.0 45722.09125995496
577.5 45902.359292168614
578.0 46087.68359205326
578.5 46278.03027288583
579.0 46473.30368572972
579.5 46673.40554883139
580.0 46878.23758043733
580.5 47087.70149879401
581.0 47301.69902214792
581.5 47520.13186874553
582.0 47742.90175683331
582.5 47969.910404657734
583.0 48201.059530465296
583.5 48436.25085250247
584.0 48675.38608901571
584.5 48918.36695825152
585.0 49165.09517845637
585.5 49415.47246787674
586.0 49669.4005447591
586.5 49926.78112734992
587.0 50187.51593389569
587.5 50451.50668264289
588.0 50718.65509183798
588.5 50988.86287972746
589.0 51262.03176455778
589.5 51538.06346457544
590.0 51816.859698026914
590.5 52098.32218315867
591.0 52382.352638217184
591.5 52668.85278144894
592.0 52957.72433110043
592.5 53248.86900541809
593.0 53542.18852264844
593.5 53837.58460103793
594.0 54134.95895883305
594.5 54434.21331428026
595.0 54735.249386105264
595.5 55037.972622956244
596.0 55342.301200959024
596.5 55648.156008592654
597.0 55955.457934336235
597.5 56264.12786666886
598.0 56574.08669406961
598.5 56885.25530501755
599.0 57197.554587991785
599.5 57510.905431471394
600.0 57825.228723935455
600.5 58140.445353863055
601.0 58456.47620973328
601.5 58773.242180025205
602.0 59090.66415321793
602.5 59408.663017790524
603.0 59727.15966222208
603.5 60046.07497499168
604.0 60365.3298445784
604.5 60684.84515946133
605.0 61004.54180811957
605.5 61324.340679032175
606.0 61644.162660678245
606.5 61963.928641536855
607.0 62283.55951008711
607.5 62602.97615480807
608.0 62922.09946417883
608.5 63240.85032667847
609.0 63559.149630786065
609.5 63876.918264980726
610.0 64194.07711774151
610.5 64510.54707754752
611.0 64826.24903287782
611.5 65141.10387221151
612.0 65455.03248402767
612.5 65767.95575680539
613.0 66079.79457902374
613.5 66390.46983916181
614.0 66699.9024256987
614.5 67008.01322711346
615.0 67314.7231318852
615.5 67619.95302849301
616.0 67923.62380541593
616.5 68225.6563511331
617.0 68525.97155412356
617.5 68824.49030286643
618.0 69121.13349710779
618.5 69415.84397333572
619.0 69708.63228608025
619.5 69999.52201585664
620.0 70288.5367431802
620.5 70575.7000485662
621.0 70861.03551252994
621.5 71144.56671558668
622.0 71426.31723825175
622.5 71706.31066104039
623.0 71984.57056446791
623.5 72261.12052904959
624.0 72535.9841353007
624.5 72809.18496373655
625.0 73080.74659487241
625.5 73350.69260922357
626.0 73619.0465873053
626.5 73885.83210963292
627.0 74151.07275672168
627.5 74414.79210908689
628.0 74677.01374724382
628.5 74937.76125170777
629.0 75197.05820299398
629.5 75454.92818161781
630.0 75711.3947680945
630.5 75966.48154293932
631.0 76220.2120866676
631.5 76472.60997979458
632.0 76723.69880283557
632.5 76973.50213630586
633.0 77222.04356072072
633.5 77469.34665659544
634.0 77715.43500444532
634.5 77960.33218478561
635.0 78204.06177813163
635.5 78446.64736499864
636.0 78688.11252590196
636.5 78928.48048108019
637.0 79167.7529523057
637.5 79405.89840647679
638.0 79642.88245776117
638.5 79878.6707203265
639.0 80113.22880834046
639.5 80346.52233597073
640.0 80578.51691738502
640.5 80809.178166751
641.0 81038.47169823629
641.5 81266.36312600864
642.0 81492.81806423569
642.5 81717.80212708515
643.0 81941.28092872465
643.5 82163.22008332191
644.0 82383.58520504461
644.5 82602.34190806042
645.0 82819.455806537
645.5 83034.89251464208
646.0 83248.6176465433
646.5 83460.59681640833
647.0 83670.79563840487
647.5 83879.17972670059
648.0 84085.71469546319
648.5 84290.36615886033
649.0 84493.09973105969
649.5 84693.88102622895
650.0 84892.67565853581
650.5 85089.44924214791
651.0 85284.16739123296
651.5 85476.79571995862
652.0 85667.29984249259
652.5 85855.64537300254
653.0 86041.79792565614
653.5 86225.72311462108
654.0 86407.38655406503
654.5 86586.7538581557
655.0 86763.79064106074
655.5 86938.46251694782
656.0 87110.73587593883
656.5 87280.63308396809
657.0 87448.26916786945
657.5 87613.76785692252
658.0 87777.25288040687
658.5 87938.84796760211
659.0 88098.67684778779
659.5 88256.86325024354
660.0 88413.5309042489
660.5 88568.80353908347
661.0 88722.80488402686
661.5 88875.65866835862
662.0 89027.48862135837
662.5 89178.41847230567
663.0 89328.57195048012
663.5 89478.0727851613
664.0 89627.04470562881
664.5 89775.61144116223
665.0 89923.8967210411
665.5 90072.02427454508
666.0 90220.1178309537
666.5 90368.3011195466
