Wavelength Emission
524	151766.09252
525	160125.75897
526	171135.43989
527	182464.50205
528	197233.71054
529	210474.43633
530	228743.87099
531	244695.00757
532	266579.27121
533	290129.69502
534	318758.79836
535	347319.38781
536	377096.59833
537	416082.9985
538	458411.92073
539	504675.44326
540	557563.75239
541	612322.14704
542	676326.33466
543	745535.62399
544	822297.14293
545	906615.36377
546	995821.85931
547	1.09923E6
548	1.21326E6
549	1.33445E6
550	1.46823E6
551	1.61129E6
552	1.75178E6
553	1.91883E6
554	2.09316E6
555	2.27696E6
556	2.47479E6
557	2.67691E6
558	2.88536E6
559	3.10349E6
560	3.31674E6
561	3.54152E6
562	3.77113E6
563	4.01027E6
564	4.24803E6
565	4.48314E6
566	4.70393E6
567	4.93067E6
568	5.14608E6
569	5.33575E6
570	5.5366E6
571	5.72486E6
572	5.90285E6
573	6.06275E6
574	6.21844E6
575	6.35575E6
576	6.47187E6
577	6.58306E6
578	6.67587E6
579	6.75883E6
580	6.82922E6
581	6.88759E6
582	6.92552E6
583	6.95494E6
584	6.97201E6
585	6.97302E6
586	6.96794E6
587	6.94827E6
588	6.91306E6
589	6.87068E6
590	6.81181E6
591	6.75591E6
592	6.67849E6
593	6.59259E6
594	6.49938E6
595	6.39467E6
596	6.2783E6
597	6.15772E6
598	6.03523E6
599	5.90418E6
600	5.76198E6
601	5.63352E6
602	5.49945E6
603	5.35727E6
604	5.23698E6
605	5.11207E6
606	4.99738E6
607	4.88495E6
608	4.78746E6
609	4.68859E6
610	4.61188E6
611	4.53323E6
612	4.47101E6
613	4.41666E6
614	4.36471E6
615	4.32421E6
616	4.28632E6
617	4.26063E6
618	4.24102E6
619	4.21951E6
620	4.20538E6
621	4.19363E6
622	4.18724E6
623	4.17915E6
624	4.171E6
625	4.15803E6
626	4.15364E6
627	4.14558E6
628	4.12892E6
629	4.1156E6
630	4.09333E6
631	4.08028E6
632	4.05447E6
633	4.02411E6
634	3.99246E6
635	3.95431E6
636	3.91499E6
637	3.8656E6
638	3.81621E6
639	3.76578E6
640	3.6995E6
641	3.6381E6
642	3.57331E6
643	3.50388E6
644	3.43027E6
645	3.34318E6
646	3.25755E6
647	3.17578E6
648	3.09219E6
649	3.00279E6
650	2.91442E6
651	2.83584E6
652	2.75307E6
653	2.67619E6
654	2.58896E6
655	2.51184E6
656	2.42836E6
657	2.35332E6
658	2.27967E6
659	2.19738E6
660	2.13021E6
661	2.05345E6
662	1.98952E6
663	1.92269E6
664	1.86326E6
665	1.8004E6
666	1.74112E6
667	1.68506E6
668	1.62927E6
669	1.58487E6
670	1.53515E6
671	1.48987E6
672	1.44875E6
673	1.41036E6
674	1.36925E6
675	1.33634E6
676	1.30413E6
677	1.26897E6
678	1.23586E6
679	1.21123E6
680	1.18249E6
681	1.15388E6
682	1.12928E6
683	1.10329E6
684	1.082E6
685	1.05756E6
686	1.03476E6
687	1.01368E6
688	989709.03719
689	969430.87212
690	949843.37395
691	930372.61458
692	911721.05621
693	892170.89189
694	871438.03659
695	852429.22422
696	830159.19321
697	810287.66849
698	794889.47736
699	775501.81896
700	753861.20061
701	731512.16193
702	713347.91872
703	695474.96225
704	678100.29307
705	658036.6212
706	639356.31833
707	620533.23662
708	601843.95108
709	581668.25138
710	566215.84987
711	546415.65855
712	528949.9612
713	511052.63164
714	494273.26651
715	477807.1061
716	463282.36876
717	444806.8073
718	429044.81295
719	414024.03365
720	399725.79575
721	384307.68449
722	372589.83011
723	357394.45314
724	344176.96779
725	331719.94873
726	320079.35798
727	306640.41158
728	298306.04263
729	286087.83033
730	276636.45437
731	264431.62966
732	255057.63587
733	246661.19611
734	236656.13169
735	229464.39971
736	220433.58607
737	213045.67061
738	205206.33712
739	199159.64919
740	192645.69265
741	187166.9057
742	181746.85101
743	176682.31736
744	171107.72076
745	164891.76216
746	159633.47135
747	153693.46759
748	148087.67431
749	142709.43978
750	137113.23194
751	133756.95712
752	127473.22632
753	123744.66943
754	119829.83187
755	116044.64616
756	112239.02581
757	108857.0759
758	105622.90794
759	102410.98113
760	99800.91459
761	96966.68284
762	94754.26686
763	90877.87944
764	89266.10108
765	86310.74172
766	84298.97425
767	81908.17466
768	79655.68166
769	77853.04449
770	74882.30736
771	73265.69572
772	71198.18939
773	70112.38506
774	67790.39012
775	65922.10679
776	64901.44378
777	63071.7455
778	61198.4802
779	59700.09661
780	57787.6213
781	56917.59757
782	54871.09594
783	53482.90993
784	52078.76064
785	51215.83847
786	48472.99134
787	47176.6543
788	46802.5082
789	45061.67024
790	43869.41434
791	42442.93176
792	41274.7023
793	41162.69191
794	39832.10366
795	38516.35828
796	37241.87941
797	36426.25225
798	35634.03588
799	34223.30905
800	33582.21904
801	32611.90133
802	31625.36363
803	30957.32714
804	29840.26201
805	29620.64927
806	28234.12551
807	27533.35489
808	26617.76194
809	25916.10809
810	25180.13399
811	24374.92441
812	23819.61673
813	22761.25596
814	22293.33591
815	21479.09721
816	20588.04004
817	20137.03768
818	19410.05072
819	18529.38072
820	18364.73821
821	17242.16494
822	16935.81409
823	16163.56837
824	15298.58217
825	14823.37546
826	14298.22067
827	13922.26266
828	13075.60968
829	12453.15677
830	11848.3498
831	11404.4364
832	11061.00669
833	10283.46773
834	9871.40839
835	9525.58268
836	9140.38019
837	8438.18569
838	8418.24989
839	7844.75888
840	7658.53062
841	7065.88487
842	6915.3102
843	6542.61399
844	6108.61076
845	5892.71866
846	5747.41903
847	5751.44039
848	5457.56069
849	5466.4833
850	5194.85016
851	5107.64191
852	4849.06093
853	4748.02319
854	4685.31815
855	4690.15654
856	4365.62994
857	4582.54734
858	4284.37236
859	4329.10998
860	4263.64582
861	4231.47713
862	4106.27829
863	4063.87368
864	4061.73007
865	3832.11234
866	4051.83749
867	4007.45616
868	4172.77588
869	3880.78344
870	3891.71322
871	4047.28138
872	3857.54479
873	3953.31866
874	3848.33163
875	3827.17941
876	3748.34123
877	4015.21102
878	3816.9364
879	3899.19548
880	3726.38443
881	4034.79933
882	3799.06837
883	3748.8879
884	3872.76602
885	3767.58659
886	3863.83399
887	3875.33632
888	3789.50622
889	3701.02369
890	3642.76339
891	3692.66425
892	3604.60291
893	3710.23706
894	3829.91844
895	3519.98982
896	3602.83327
897	3729.06372
898	3827.54073
899	3705.01835
900	3741.32258
